f,Re,Im,Mag,Phase
0.18474216512385563,359.0385083907137,-1334.9696903131685,1382.4083060233202,74.94657616841472
0.20738525696405227,338.7838210692731,-1183.383703048719,1230.9230138638225,74.02442993687205
0.23280361999228463,326.1926905107066,-1066.2133599614388,1114.9944395838368,72.98926001202736
0.2613374078510632,310.6726562939799,-948.2730991221,997.8674109757214,71.86020075555462
0.29336846542410466,293.64853765617994,-854.0399637064135,903.1133501810639,71.0252544197604
0.32932543876130727,277.50320973380616,-764.7112251047804,813.5055557362955,70.05486021102479
0.36968951130633787,276.0987674351127,-694.0874260610816,746.9858662620638,68.30799373829923
0.41500084319018127,264.2059117900153,-622.1958711315241,675.9677994386342,66.9922418797789
0.4658657997625718,252.32003489502856,-560.8700823473018,615.0127228616475,65.77832924671256
0.5229650660949681,239.4661860978127,-500.15463438624613,554.5256644937832,64.41563230542903
0.5870627560449804,234.70699264512996,-456.3307866364283,513.1521794056248,62.78164560273166
0.6590166377815808,227.16340616363362,-408.50239368299873,467.4156808929324,60.92207574298474
0.7397896126111319,221.31590387319548,-364.1893145253377,426.16262872481536,58.713173124865115
0.8304626007161864,216.73240806049625,-324.1133863428749,389.90053079003,56.22962369541853
0.9322490062466093,217.68219907018874,-294.9091734305049,366.5473507822651,53.56774054842233
1.0465109553377765,214.6407870917511,-264.1119311973536,340.33186698304064,50.899628584985834
1.1747775243562715,206.25042557958326,-238.33463003454253,315.18666520882743,49.127687451802394
1.3187652023071292,204.79032330572204,-220.67833288387038,301.0614607087172,47.13856673870445
1.4804008612346746,201.65587785296813,-201.6848826888715,285.2049876455092,45.00412022498703
1.6618475420114736,198.8961546745723,-183.16638452640854,270.3878783614523,42.64242590177248
1.8655334005860076,198.62779457189896,-167.26552954051394,259.6743309396696,40.100910638495236
2.0941842020535755,196.93985912778027,-150.14679237470378,247.64766781393752,37.32186847464151
2.35085979739261,194.89145479800789,-129.77716692868162,234.1469457612438,33.65943149425631
2.6389950710054304,192.94765279198697,-115.1643317511129,224.70340457059734,30.831636794542717
2.962445907031635,192.7263011171463,-107.0558915799211,220.4640357615472,29.05136091130747
3.3255407895646,192.10415082963303,-98.10540370577394,215.70506485070598,27.052883891921425
3.7331387272955348,191.0125245488327,-88.12902900712334,210.36280633290855,24.767573825696957
4.190694277744326,188.32772522661494,-79.36016294466351,204.36576903100706,22.85026305577747
4.704330541244511,185.48530707409986,-72.8569775565331,199.28105358775653,21.4444581354282
5.28092110150252,183.44486583871378,-66.28428253280832,195.0528772242872,19.866349453782593
5.928182009276263,180.0161692551457,-61.7311230095116,190.3064705713201,18.927860785292506
6.654775040117118,176.04742511773702,-56.782757913045145,184.978316261114,17.87671149386865
7.470423607991148,171.19587145367686,-52.26796009128314,178.99711186186167,16.97799999893199
8.38604288595897,171.15945383787536,-49.44797399622244,178.1590883744382,16.114008217906534
9.413885875215335,170.6599938188531,-47.835519102831256,177.23732783499167,15.658035793940748
10.567707377213663,170.0817300375157,-46.03865917345297,176.2025908749464,15.146176694263808
11.862948063183484,169.41067441211862,-44.03845741450363,175.04103043634632,14.571581117532721
13.316941104296006,168.39078421773425,-41.75535445193531,173.49053528901885,13.926559710260081
14.94914412764428,166.73582187444728,-40.062477603694454,171.48130046128625,13.510639651119085
16.781399602119482,164.83890590384704,-38.28194275638917,169.22580193570008,13.074518331419203
18.838227138719375,162.68887850469764,-36.32038681336583,166.69385617769117,12.58494340469457
21.147151616910563,160.16219022994767,-34.574747263234,163.85158018026695,12.181699539068658
23.7390715280973,157.57522021248235,-33.15301879767497,161.02506848441735,11.88144647745044
26.648672465443322,156.31080626563738,-32.01610681595876,159.5559439540392,11.575414130487294
29.9148912934505,154.80433823517387,-31.14739293444412,157.90675483665282,11.376298080775694
33.58143720890503,153.10831030523826,-30.1851448554917,156.0554313520428,11.152777190959211
37.69737666613317,151.19830641654178,-29.121295671491875,153.97719871726758,10.901860259568119
42.31778999415428,149.04665075423594,-27.947685489438985,151.64424560553485,10.620189465798397
47.50450849271354,147.88569732135045,-27.05737377147566,150.34054991129779,10.36823904543477
53.32694187116168,146.67636980627032,-26.62619348724844,149.07351085677882,10.28887455797153
59.863007103135196,145.3177381042564,-26.14621900298663,147.65117600577852,10.199782689770519
67.20017112715692,143.7912331925574,-25.612527278563622,146.0545113874665,10.099771195546191
75.43662134678608,142.07594502519248,-25.019868125350914,144.26215011503007,9.987501701382982
84.68257959418584,140.54815947567292,-24.604620757111825,142.68557213187495,9.92968389054998
95.06177714083357,139.1198324604394,-24.5334483467507,141.26647823034102,10.001145682928085
106.71311049426222,137.51691614281322,-24.449353977165238,139.67345179142043,10.081366255018432
119.79250013903919,135.7181464926602,-24.349663062284574,137.88517461514837,10.1714191346391
134.47497709602695,133.69969287442257,-24.231090082091107,135.8777156169522,10.27250942752359
150.95702522268112,131.72871581045547,-24.143449490089854,133.92296562708077,10.385989944287944
169.45921059951942,130.38006299602512,-24.3291061066334,132.63056295890215,10.569911407052695
190.22913318973937,128.8661649985592,-24.528347784080214,131.17975577981795,10.776751403722862
213.54474027168789,127.16705010601122,-24.739369788542426,129.55112909658106,11.0089429330964
239.7180459851998,125.26020054402659,-24.960335640030056,127.7228882996024,11.269593228884176
269.0993067675249,123.12042618323181,-25.18833446284064,125.67056750310536,11.562190365728732
302.081708555364,121.52464267153005,-25.32319128529786,124.13501840059013,11.770800087610722
339.1066284780946,119.77591599978952,-25.463532784067368,122.45269109102465,12.002002750748002
380.66954145522215,117.81389907981927,-25.604760129332796,120.56416780150937,12.261542979008032
427.32665074133126,115.61286025099922,-25.74275348964647,118.4441759338372,12.5528939918866
479.7023311498216,113.14407819418429,-25.871795968742322,116.06434533076865,12.879954707192448
538.4974845621442,111.59185720191984,-26.017017233385147,114.5845878794174,13.123756041613076
604.4989195376457,110.53402669527831,-26.316325484143913,113.62358929579676,13.39186008237739
678.589880543835,109.34614358209042,-26.641209175385477,112.5448050449321,13.692824539244786
761.7618677113602,107.39077017057538,-26.730190222731505,110.6674323691155,13.977225419121604
855.1279052880236,105.06498473023103,-26.36279360894725,108.32196408499816,14.085786478377017
959.9374363529565,102.45626619374958,-25.939983617534832,105.68902134300633,14.207653422801316
1077.5930431150111,99.53053222023799,-25.452276519544558,102.73336957420987,14.34445710033705
1209.6692165497634,96.24969536151906,-24.88832990447328,99.41545565262537,14.498028245291179
1357.9334265541859,92.99606730882324,-24.26612629860071,96.10990282196119,14.624498096936982
1524.3697745840213,90.71803856429176,-23.490240903465608,93.70994578301269,14.517143156290581
1711.2055452982231,88.15773707772561,-22.629532999274897,91.01583582229341,14.39663015950185
1920.9410125298893,85.64627829513383,-21.769439265644326,88.36964112039885,14.261346377427609
2156.3828984531915,83.92062290609792,-21.09416763390524,86.53112074343417,14.109481415307423
2420.681933703591,81.97992988866427,-20.347215579385853,84.46726044086141,13.939002985697075
2717.3750210884236,79.79866979023052,-19.515821587618,82.15044121932631,13.742691078181581
3050.4325671310958,77.66005685470269,-18.671775240756777,79.87314706030426,13.519003900080474
3424.311614849137,77.18373353639757,-18.19980929894768,79.30045259098894,13.267900299129597
3844.0154887996155,76.64589203961127,-17.675401344965586,78.65756530209512,12.986019956475369
4315.160750573906,76.03317038452671,-17.116036226017307,77.93588194671827,12.686532265942
4844.052360753687,75.32649780777514,-16.561981795646513,77.12574481315613,12.400273637529212
5437.7680531606275,74.52890298356775,-15.94894694466825,76.21631248346968,12.078929459432327
6104.253050512778,73.6149469559826,-15.269310115263387,75.18186115499014,11.718199439277774
6852.42638899182,72.49726215236637,-14.503826287482111,73.93384878772639,11.313256215437965
7692.300274577744,71.23040796108157,-13.683807809210755,72.53287264724547,10.874397433399956
8635.114068401483,69.78584604316099,-12.856262636708411,70.96018458927367,10.43824973929311
9693.484694134399,68.15425730544307,-11.954457710358751,69.19473858614754,9.948645205558286
10881.575480196552,66.46625356425864,-11.002263034986472,67.37071065945017,9.399031845926558
12215.285696264093,65.99525723901402,-10.325078161923866,66.79806297411228,8.89194670185523
13712.46332049143,65.42814922490783,-9.781181300646036,66.15522820331674,8.50246595795492
15393.143884741901,64.78639590653644,-9.180381913904336,65.43360380296674,8.065248151710396
17279.81859410182,64.05965611792466,-8.51830124544087,64.62353285030804,7.574442346568451
